#N low N high   f(n)    f +     f-
12.75  13.00  -11.08  +0.02  -0.01
13.00  13.25  -11.44  +0.02  -0.02
13.25  13.50  -11.80  +0.02  -0.02
13.50  13.75  -12.16  +0.02  -0.02
13.75  14.00  -12.51  +0.03  -0.02
14.00  14.25  -12.99  +0.03  -0.03
14.25  14.50  -13.46  +0.05  -0.04
14.50  14.75  -13.78  +0.05  -0.04
14.75  15.06  -14.29  +0.07  -0.06
15.06  15.50  -14.93  +0.06  -0.05
15.50  16.00  -15.97  +0.12  -0.10
16.00  16.50  -16.67  +0.17  -0.12
16.50  17.00  -17.22  +0.18  -0.12
17.00  17.50  -17.90  +0.23  -0.15
17.50  18.00  -19.17  +0.40  -0.30
